# total density of states output by FHI-aims 
# The energy reference for this output is the vacuum level
#    Energy (eV)      DOS 
        -20.00000000          1.01550603
        -19.99733333          1.02091769
        -19.99466667          1.02619627
        -19.99200000          1.03132813
        -19.98933333          1.03630019
        -19.98666667          1.04109996
        -19.98400000          1.04571560
        -19.98133333          1.05013592
        -19.97866667          1.05435038
        -19.97600000          1.05834917
        -19.97333333          1.06212319
        -19.97066667          1.06566409
        -19.96800000          1.06896424
        -19.96533333          1.07201683
        -19.96266667          1.07481579
        -19.96000000          1.07735588
        -19.95733333          1.07963262
        -19.95466667          1.08164238
        -19.95200000          1.08338232
        -19.94933333          1.08485042
        -19.94666667          1.08604549
        -19.94400000          1.08696714
        -19.94133333          1.08761579
        -19.93866667          1.08799269
        -19.93600000          1.08809986
        -19.93333333          1.08794014
        -19.93066667          1.08751714
        -19.92800000          1.08683521
        -19.92533333          1.08589951
        -19.92266667          1.08471588
        -19.92000000          1.08329091
        -19.91733333          1.08163188
        -19.91466667          1.07974675
        -19.91200000          1.07764411
        -19.90933333          1.07533323
        -19.90666667          1.07282392
        -19.90400000          1.07012661
        -19.90133333          1.06725225
        -19.89866667          1.06421232
        -19.89600000          1.06101877
        -19.89333333          1.05768401
        -19.89066667          1.05422087
        -19.88800000          1.05064253
        -19.88533333          1.04696256
        -19.88266667          1.04319480
        -19.88000000          1.03935337
        -19.87733333          1.03545264
        -19.87466667          1.03150714
        -19.87200000          1.02753159
        -19.86933333          1.02354079
        -19.86666667          1.01954963
        -19.86400000          1.01557304
        -19.86133333          1.01162593
        -19.85866667          1.00772316
        -19.85600000          1.00387952
        -19.85333333          1.00010965
        -19.85066667          0.99642805
        -19.84800000          0.99284900
        -19.84533333          0.98938654
        -19.84266667          0.98605442
        -19.84000000          0.98286609
        -19.83733333          0.97983465
        -19.83466667          0.97697279
        -19.83200000          0.97429280
        -19.82933333          0.97180652
        -19.82666667          0.96952530
        -19.82400000          0.96745999
        -19.82133333          0.96562088
        -19.81866667          0.96401773
        -19.81600000          0.96265969
        -19.81333333          0.96155531
        -19.81066667          0.96071252
        -19.80800000          0.96013859
        -19.80533333          0.95984015
        -19.80266667          0.95982314
        -19.80000000          0.96009283
        -19.79733333          0.96065378
        -19.79466667          0.96150987
        -19.79200000          0.96266427
        -19.78933333          0.96411945
        -19.78666667          0.96587718
        -19.78400000          0.96793852
        -19.78133333          0.97030384
        -19.77866667          0.97297284
        -19.77600000          0.97594453
        -19.77333333          0.97921727
        -19.77066667          0.98278875
        -19.76800000          0.98665607
        -19.76533333          0.99081568
        -19.76266667          0.99526346
        -19.76000000          0.99999474
        -19.75733333          1.00500427
        -19.75466667          1.01028632
        -19.75200000          1.01583467
        -19.74933333          1.02164261
        -19.74666667          1.02770305
        -19.74400000          1.03400848
        -19.74133333          1.04055103
        -19.73866667          1.04732250
        -19.73600000          1.05431440
        -19.73333333          1.06151799
        -19.73066667          1.06892429
        -19.72800000          1.07652413
        -19.72533333          1.08430819
        -19.72266667          1.09226703
        -19.72000000          1.10039111
        -19.71733333          1.10867085
        -19.71466667          1.11709664
        -19.71200000          1.12565887
        -19.70933333          1.13434798
        -19.70666667          1.14315447
        -19.70400000          1.15206893
        -19.70133333          1.16108206
        -19.69866667          1.17018474
        -19.69600000          1.17936795
        -19.69333333          1.18862290
        -19.69066667          1.19794099
        -19.68800000          1.20731381
        -19.68533333          1.21673320
        -19.68266667          1.22619122
        -19.68000000          1.23568018
        -19.67733333          1.24519264
        -19.67466667          1.25472141
        -19.67200000          1.26425953
        -19.66933333          1.27380032
        -19.66666667          1.28333733
        -19.66400000          1.29286433
        -19.66133333          1.30237535
        -19.65866667          1.31186460
        -19.65600000          1.32132652
        -19.65333333          1.33075572
        -19.65066667          1.34014699
        -19.64800000          1.34949526
        -19.64533333          1.35879560
        -19.64266667          1.36804318
        -19.64000000          1.37723326
        -19.63733333          1.38636117
        -19.63466667          1.39542227
        -19.63200000          1.40441192
        -19.62933333          1.41332550
        -19.62666667          1.42215833
        -19.62400000          1.43090569
        -19.62133333          1.43956274
        -19.61866667          1.44812458
        -19.61600000          1.45658615
        -19.61333333          1.46494224
        -19.61066667          1.47318749
        -19.60800000          1.48131632
        -19.60533333          1.48932297
        -19.60266667          1.49720146
        -19.60000000          1.50494555
        -19.59733333          1.51254880
        -19.59466667          1.52000450
        -19.59200000          1.52730567
        -19.58933333          1.53444510
        -19.58666667          1.54141531
        -19.58400000          1.54820858
        -19.58133333          1.55481694
        -19.57866667          1.56123217
        -19.57600000          1.56744586
        -19.57333333          1.57344935
        -19.57066667          1.57923383
        -19.56800000          1.58479029
        -19.56533333          1.59010960
        -19.56266667          1.59518249
        -19.56000000          1.59999962
        -19.55733333          1.60455159
        -19.55466667          1.60882896
        -19.55200000          1.61282233
        -19.54933333          1.61652234
        -19.54666667          1.61991971
        -19.54400000          1.62300530
        -19.54133333          1.62577015
        -19.53866667          1.62820551
        -19.53600000          1.63030290
        -19.53333333          1.63205413
        -19.53066667          1.63345138
        -19.52800000          1.63448722
        -19.52533333          1.63515465
        -19.52266667          1.63544716
        -19.52000000          1.63535878
        -19.51733333          1.63488407
        -19.51466667          1.63401825
        -19.51200000          1.63275714
        -19.50933333          1.63109726
        -19.50666667          1.62903586
        -19.50400000          1.62657091
        -19.50133333          1.62370118
        -19.49866667          1.62042622
        -19.49600000          1.61674644
        -19.49333333          1.61266305
        -19.49066667          1.60817817
        -19.48800000          1.60329477
        -19.48533333          1.59801669
        -19.48266667          1.59234870
        -19.48000000          1.58629642
        -19.47733333          1.57986640
        -19.47466667          1.57306603
        -19.47200000          1.56590363
        -19.46933333          1.55838833
        -19.46666667          1.55053015
        -19.46400000          1.54233990
        -19.46133333          1.53382922
        -19.45866667          1.52501050
        -19.45600000          1.51589690
        -19.45333333          1.50650228
        -19.45066667          1.49684117
        -19.44800000          1.48692873
        -19.44533333          1.47678073
        -19.44266667          1.46641348
        -19.44000000          1.45584379
        -19.43733333          1.44508894
        -19.43466667          1.43416659
        -19.43200000          1.42309479
        -19.42933333          1.41189186
        -19.42666667          1.40057638
        -19.42400000          1.38916714
        -19.42133333          1.37768305
        -19.41866667          1.36614311
        -19.41600000          1.35456638
        -19.41333333          1.34297187
        -19.41066667          1.33137853
        -19.40800000          1.31980518
        -19.40533333          1.30827049
        -19.40266667          1.29679286
        -19.40000000          1.28539046
        -19.39733333          1.27408112
        -19.39466667          1.26288230
        -19.39200000          1.25181108
        -19.38933333          1.24088407
        -19.38666667          1.23011741
        -19.38400000          1.21952670
        -19.38133333          1.20912701
        -19.37866667          1.19893282
        -19.37600000          1.18895800
        -19.37333333          1.17921577
        -19.37066667          1.16971870
        -19.36800000          1.16047869
        -19.36533333          1.15150693
        -19.36266667          1.14281391
        -19.36000000          1.13440938
        -19.35733333          1.12630237
        -19.35466667          1.11850118
        -19.35200000          1.11101334
        -19.34933333          1.10384567
        -19.34666667          1.09700420
        -19.34400000          1.09049425
        -19.34133333          1.08432039
        -19.33866667          1.07848645
        -19.33600000          1.07299556
        -19.33333333          1.06785009
        -19.33066667          1.06305175
        -19.32800000          1.05860154
        -19.32533333          1.05449976
        -19.32266667          1.05074608
        -19.32000000          1.04733950
        -19.31733333          1.04427841
        -19.31466667          1.04156056
        -19.31200000          1.03918311
        -19.30933333          1.03714267
        -19.30666667          1.03543526
        -19.30400000          1.03405637
        -19.30133333          1.03300097
        -19.29866667          1.03226354
        -19.29600000          1.03183806
        -19.29333333          1.03171807
        -19.29066667          1.03189664
        -19.28800000          1.03236645
        -19.28533333          1.03311975
        -19.28266667          1.03414841
        -19.28000000          1.03544396
        -19.27733333          1.03699753
        -19.27466667          1.03879997
        -19.27200000          1.04084179
        -19.26933333          1.04311321
        -19.26666667          1.04560416
        -19.26400000          1.04830435
        -19.26133333          1.05120318
        -19.25866667          1.05428988
        -19.25600000          1.05755344
        -19.25333333          1.06098265
        -19.25066667          1.06456613
        -19.24800000          1.06829233
        -19.24533333          1.07214955
        -19.24266667          1.07612596
        -19.24000000          1.08020961
        -19.23733333          1.08438845
        -19.23466667          1.08865035
        -19.23200000          1.09298309
        -19.22933333          1.09737443
        -19.22666667          1.10181206
        -19.22400000          1.10628368
        -19.22133333          1.11077696
        -19.21866667          1.11527962
        -19.21600000          1.11977938
        -19.21333333          1.12426402
        -19.21066667          1.12872141
        -19.20800000          1.13313950
        -19.20533333          1.13750632
        -19.20266667          1.14181006
        -19.20000000          1.14603905
        -19.19733333          1.15018177
        -19.19466667          1.15422690
        -19.19200000          1.15816333
        -19.18933333          1.16198016
        -19.18666667          1.16566674
        -19.18400000          1.16921269
        -19.18133333          1.17260791
        -19.17866667          1.17584262
        -19.17600000          1.17890733
        -19.17333333          1.18179292
        -19.17066667          1.18449062
        -19.16800000          1.18699204
        -19.16533333          1.18928918
        -19.16266667          1.19137446
        -19.16000000          1.19324071
        -19.15733333          1.19488123
        -19.15466667          1.19628975
        -19.15200000          1.19746046
        -19.14933333          1.19838807
        -19.14666667          1.19906773
        -19.14400000          1.19949513
        -19.14133333          1.19966643
        -19.13866667          1.19957832
        -19.13600000          1.19922801
        -19.13333333          1.19861322
        -19.13066667          1.19773220
        -19.12800000          1.19658371
        -19.12533333          1.19516703
        -19.12266667          1.19348197
        -19.12000000          1.19152884
        -19.11733333          1.18930846
        -19.11466667          1.18682214
        -19.11200000          1.18407169
        -19.10933333          1.18105937
        -19.10666667          1.17778794
        -19.10400000          1.17426057
        -19.10133333          1.17048090
        -19.09866667          1.16645295
        -19.09600000          1.16218116
        -19.09333333          1.15767034
        -19.09066667          1.15292566
        -19.08800000          1.14795262
        -19.08533333          1.14275702
        -19.08266667          1.13734498
        -19.08000000          1.13172284
        -19.07733333          1.12589721
        -19.07466667          1.11987490
        -19.07200000          1.11366291
        -19.06933333          1.10726840
        -19.06666667          1.10069864
        -19.06400000          1.09396104
        -19.06133333          1.08706307
        -19.05866667          1.08001225
        -19.05600000          1.07281614
        -19.05333333          1.06548229
        -19.05066667          1.05801822
        -19.04800000          1.05043143
        -19.04533333          1.04272932
        -19.04266667          1.03491920
        -19.04000000          1.02700828
        -19.03733333          1.01900360
        -19.03466667          1.01091209
        -19.03200000          1.00274047
        -19.02933333          0.99449528
        -19.02666667          0.98618286
        -19.02400000          0.97780931
        -19.02133333          0.96938051
        -19.01866667          0.96090210
        -19.01600000          0.95237946
        -19.01333333          0.94381771
        -19.01066667          0.93522169
        -19.00800000          0.92659600
        -19.00533333          0.91794492
        -19.00266667          0.90927249
        -19.00000000          0.90058245
        -18.99733333          0.89187828
        -18.99466667          0.88316318
        -18.99200000          0.87444007
        -18.98933333          0.86571163
        -18.98666667          0.85698025
        -18.98400000          0.84824812
        -18.98133333          0.83951715
        -18.97866667          0.83078905
        -18.97600000          0.82206528
        -18.97333333          0.81334713
        -18.97066667          0.80463568
        -18.96800000          0.79593183
        -18.96533333          0.78723633
        -18.96266667          0.77854977
        -18.96000000          0.76987260
        -18.95733333          0.76120516
        -18.95466667          0.75254769
        -18.95200000          0.74390034
        -18.94933333          0.73526317
        -18.94666667          0.72663622
        -18.94400000          0.71801944
        -18.94133333          0.70941279
        -18.93866667          0.70081619
        -18.93600000          0.69222960
        -18.93333333          0.68365295
        -18.93066667          0.67508621
        -18.92800000          0.66652941
        -18.92533333          0.65798261
        -18.92266667          0.64944593
        -18.92000000          0.64091956
        -18.91733333          0.63240377
        -18.91466667          0.62389892
        -18.91200000          0.61540547
        -18.90933333          0.60692395
        -18.90666667          0.59845502
        -18.90400000          0.58999943
        -18.90133333          0.58155805
        -18.89866667          0.57313185
        -18.89600000          0.56472192
        -18.89333333          0.55632946
        -18.89066667          0.54795578
        -18.88800000          0.53960229
        -18.88533333          0.53127052
        -18.88266667          0.52296208
        -18.88000000          0.51467870
        -18.87733333          0.50642218
        -18.87466667          0.49819443
        -18.87200000          0.48999741
        -18.86933333          0.48183317
        -18.86666667          0.47370383
        -18.86400000          0.46561155
        -18.86133333          0.45755856
        -18.85866667          0.44954711
        -18.85600000          0.44157948
        -18.85333333          0.43365800
        -18.85066667          0.42578498
        -18.84800000          0.41796276
        -18.84533333          0.41019366
        -18.84266667          0.40248000
        -18.84000000          0.39482406
        -18.83733333          0.38722811
        -18.83466667          0.37969437
        -18.83200000          0.37222501
        -18.82933333          0.36482216
        -18.82666667          0.35748789
        -18.82400000          0.35022419
        -18.82133333          0.34303297
        -18.81866667          0.33591608
        -18.81600000          0.32887528
        -18.81333333          0.32191224
        -18.81066667          0.31502854
        -18.80800000          0.30822564
        -18.80533333          0.30150494
        -18.80266667          0.29486770
        -18.80000000          0.28831511
        -18.79733333          0.28184822
        -18.79466667          0.27546801
        -18.79200000          0.26917532
        -18.78933333          0.26297091
        -18.78666667          0.25685542
        -18.78400000          0.25082940
        -18.78133333          0.24489327
        -18.77866667          0.23904739
        -18.77600000          0.23329199
        -18.77333333          0.22762722
        -18.77066667          0.22205313
        -18.76800000          0.21656970
        -18.76533333          0.21117680
        -18.76266667          0.20587425
        -18.76000000          0.20066177
        -18.75733333          0.19553902
        -18.75466667          0.19050558
        -18.75200000          0.18556099
        -18.74933333          0.18070471
        -18.74666667          0.17593617
        -18.74400000          0.17125473
        -18.74133333          0.16665970
        -18.73866667          0.16215039
        -18.73600000          0.15772603
        -18.73333333          0.15338584
        -18.73066667          0.14912902
        -18.72800000          0.14495472
        -18.72533333          0.14086211
        -18.72266667          0.13685030
        -18.72000000          0.13291843
        -18.71733333          0.12906560
        -18.71466667          0.12529092
        -18.71200000          0.12159348
