# total density of states output by FHI-aims 
# The energy reference for this output is the vacuum level
#    Energy (eV)      DOS 
        -20.00000000          0.74484054
        -19.99733333          0.74759866
        -19.99466667          0.75072068
        -19.99200000          0.75420567
        -19.98933333          0.75805196
        -19.98666667          0.76225707
        -19.98400000          0.76681778
        -19.98133333          0.77173007
        -19.97866667          0.77698915
        -19.97600000          0.78258946
        -19.97333333          0.78852463
        -19.97066667          0.79478755
        -19.96800000          0.80137030
        -19.96533333          0.80826421
        -19.96266667          0.81545987
        -19.96000000          0.82294708
        -19.95733333          0.83071492
        -19.95466667          0.83875174
        -19.95200000          0.84704517
        -19.94933333          0.85558216
        -19.94666667          0.86434895
        -19.94400000          0.87333115
        -19.94133333          0.88251372
        -19.93866667          0.89188100
        -19.93600000          0.90141675
        -19.93333333          0.91110417
        -19.93066667          0.92092592
        -19.92800000          0.93086417
        -19.92533333          0.94090062
        -19.92266667          0.95101655
        -19.92000000          0.96119283
        -19.91733333          0.97140999
        -19.91466667          0.98164823
        -19.91200000          0.99188750
        -19.90933333          1.00210751
        -19.90666667          1.01228778
        -19.90400000          1.02240770
        -19.90133333          1.03244659
        -19.89866667          1.04238369
        -19.89600000          1.05219828
        -19.89333333          1.06186970
        -19.89066667          1.07137738
        -19.88800000          1.08070094
        -19.88533333          1.08982018
        -19.88266667          1.09871519
        -19.88000000          1.10736637
        -19.87733333          1.11575451
        -19.87466667          1.12386077
        -19.87200000          1.13166684
        -19.86933333          1.13915489
        -19.86666667          1.14630766
        -19.86400000          1.15310854
        -19.86133333          1.15954154
        -19.85866667          1.16559140
        -19.85600000          1.17124361
        -19.85333333          1.17648442
        -19.85066667          1.18130095
        -19.84800000          1.18568115
        -19.84533333          1.18961388
        -19.84266667          1.19308892
        -19.84000000          1.19609701
        -19.83733333          1.19862985
        -19.83466667          1.20068017
        -19.83200000          1.20224170
        -19.82933333          1.20330920
        -19.82666667          1.20387849
        -19.82400000          1.20394642
        -19.82133333          1.20351093
        -19.81866667          1.20257100
        -19.81600000          1.20112667
        -19.81333333          1.19917902
        -19.81066667          1.19673021
        -19.80800000          1.19378339
        -19.80533333          1.19034275
        -19.80266667          1.18641345
        -19.80000000          1.18200164
        -19.79733333          1.17711442
        -19.79466667          1.17175980
        -19.79200000          1.16594666
        -19.78933333          1.15968477
        -19.78666667          1.15298467
        -19.78400000          1.14585771
        -19.78133333          1.13831596
        -19.77866667          1.13037217
        -19.77600000          1.12203976
        -19.77333333          1.11333272
        -19.77066667          1.10426560
        -19.76800000          1.09485347
        -19.76533333          1.08511183
        -19.76266667          1.07505657
        -19.76000000          1.06470395
        -19.75733333          1.05407051
        -19.75466667          1.04317304
        -19.75200000          1.03202854
        -19.74933333          1.02065411
        -19.74666667          1.00906698
        -19.74400000          0.99728442
        -19.74133333          0.98532367
        -19.73866667          0.97320195
        -19.73600000          0.96093635
        -19.73333333          0.94854384
        -19.73066667          0.93604121
        -19.72800000          0.92344503
        -19.72533333          0.91077158
        -19.72266667          0.89803688
        -19.72000000          0.88525661
        -19.71733333          0.87244608
        -19.71466667          0.85962024
        -19.71200000          0.84679360
        -19.70933333          0.83398025
        -19.70666667          0.82119383
        -19.70400000          0.80844750
        -19.70133333          0.79575395
        -19.69866667          0.78312534
        -19.69600000          0.77057336
        -19.69333333          0.75810917
        -19.69066667          0.74574340
        -19.68800000          0.73348619
        -19.68533333          0.72134715
        -19.68266667          0.70933536
        -19.68000000          0.69745942
        -19.67733333          0.68572740
        -19.67466667          0.67414691
        -19.67200000          0.66272506
        -19.66933333          0.65146849
        -19.66666667          0.64038340
        -19.66400000          0.62947555
        -19.66133333          0.61875027
        -19.65866667          0.60821251
        -19.65600000          0.59786682
        -19.65333333          0.58771740
        -19.65066667          0.57776811
        -19.64800000          0.56802248
        -19.64533333          0.55848374
        -19.64266667          0.54915485
        -19.64000000          0.54003853
        -19.63733333          0.53113723
        -19.63466667          0.52245321
        -19.63200000          0.51398852
        -19.62933333          0.50574505
        -19.62666667          0.49772454
        -19.62400000          0.48992855
        -19.62133333          0.48235858
        -19.61866667          0.47501598
        -19.61600000          0.46790203
        -19.61333333          0.46101792
        -19.61066667          0.45436480
        -19.60800000          0.44794374
        -19.60533333          0.44175580
        -19.60266667          0.43580198
        -19.60000000          0.43008326
        -19.59733333          0.42460061
        -19.59466667          0.41935497
        -19.59200000          0.41434729
        -19.58933333          0.40957849
        -19.58666667          0.40504947
        -19.58400000          0.40076116
        -19.58133333          0.39671443
        -19.57866667          0.39291016
        -19.57600000          0.38934922
        -19.57333333          0.38603242
        -19.57066667          0.38296058
        -19.56800000          0.38013444
        -19.56533333          0.37755473
        -19.56266667          0.37522209
        -19.56000000          0.37313714
        -19.55733333          0.37130038
        -19.55466667          0.36971227
        -19.55200000          0.36837313
        -19.54933333          0.36728322
        -19.54666667          0.36644265
        -19.54400000          0.36585142
        -19.54133333          0.36550941
        -19.53866667          0.36541631
        -19.53600000          0.36557170
        -19.53333333          0.36597497
        -19.53066667          0.36662532
        -19.52800000          0.36752180
        -19.52533333          0.36866324
        -19.52266667          0.37004827
        -19.52000000          0.37167533
        -19.51733333          0.37354263
        -19.51466667          0.37564816
        -19.51200000          0.37798970
        -19.50933333          0.38056479
        -19.50666667          0.38337073
        -19.50400000          0.38640462
        -19.50133333          0.38966330
        -19.49866667          0.39314338
        -19.49600000          0.39684125
        -19.49333333          0.40075305
        -19.49066667          0.40487471
        -19.48800000          0.40920193
        -19.48533333          0.41373019
        -19.48266667          0.41845478
        -19.48000000          0.42337074
        -19.47733333          0.42847296
        -19.47466667          0.43375611
        -19.47200000          0.43921468
        -19.46933333          0.44484301
        -19.46666667          0.45063526
        -19.46400000          0.45658544
        -19.46133333          0.46268744
        -19.45866667          0.46893501
        -19.45600000          0.47532180
        -19.45333333          0.48184133
        -19.45066667          0.48848707
        -19.44800000          0.49525240
        -19.44533333          0.50213063
        -19.44266667          0.50911504
        -19.44000000          0.51619887
        -19.43733333          0.52337535
        -19.43466667          0.53063768
        -19.43200000          0.53797911
        -19.42933333          0.54539286
        -19.42666667          0.55287224
        -19.42400000          0.56041057
        -19.42133333          0.56800124
        -19.41866667          0.57563771
        -19.41600000          0.58331353
        -19.41333333          0.59102234
        -19.41066667          0.59875790
        -19.40800000          0.60651405
        -19.40533333          0.61428480
        -19.40266667          0.62206426
        -19.40000000          0.62984670
        -19.39733333          0.63762653
        -19.39466667          0.64539831
        -19.39200000          0.65315678
        -19.38933333          0.66089683
        -19.38666667          0.66861354
        -19.38400000          0.67630214
        -19.38133333          0.68395806
        -19.37866667          0.69157691
        -19.37600000          0.69915447
        -19.37333333          0.70668670
        -19.37066667          0.71416976
        -19.36800000          0.72159999
        -19.36533333          0.72897391
        -19.36266667          0.73628820
        -19.36000000          0.74353974
        -19.35733333          0.75072557
        -19.35466667          0.75784292
        -19.35200000          0.76488916
        -19.34933333          0.77186184
        -19.34666667          0.77875865
        -19.34400000          0.78557744
        -19.34133333          0.79231619
        -19.33866667          0.79897303
        -19.33600000          0.80554621
        -19.33333333          0.81203411
        -19.33066667          0.81843521
        -19.32800000          0.82474811
        -19.32533333          0.83097150
        -19.32266667          0.83710416
        -19.32000000          0.84314495
        -19.31733333          0.84909280
        -19.31466667          0.85494672
        -19.31200000          0.86070575
        -19.30933333          0.86636900
        -19.30666667          0.87193561
        -19.30400000          0.87740475
        -19.30133333          0.88277562
        -19.29866667          0.88804743
        -19.29600000          0.89321940
        -19.29333333          0.89829074
        -19.29066667          0.90326069
        -19.28800000          0.90812844
        -19.28533333          0.91289318
        -19.28266667          0.91755408
        -19.28000000          0.92211029
        -19.27733333          0.92656092
        -19.27466667          0.93090505
        -19.27200000          0.93514172
        -19.26933333          0.93926993
        -19.26666667          0.94328865
        -19.26400000          0.94719681
        -19.26133333          0.95099328
        -19.25866667          0.95467691
        -19.25600000          0.95824650
        -19.25333333          0.96170082
        -19.25066667          0.96503860
        -19.24800000          0.96825854
        -19.24533333          0.97135933
        -19.24266667          0.97433961
        -19.24000000          0.97719802
        -19.23733333          0.97993320
        -19.23466667          0.98254377
        -19.23200000          0.98502836
        -19.22933333          0.98738562
        -19.22666667          0.98961422
        -19.22400000          0.99171285
        -19.22133333          0.99368027
        -19.21866667          0.99551527
        -19.21600000          0.99721670
        -19.21333333          0.99878350
        -19.21066667          1.00021469
        -19.20800000          1.00150937
        -19.20533333          1.00266678
        -19.20266667          1.00368626
        -19.20000000          1.00456729
        -19.19733333          1.00530949
        -19.19466667          1.00591265
        -19.19200000          1.00637672
        -19.18933333          1.00670183
        -19.18666667          1.00688831
        -19.18400000          1.00693669
        -19.18133333          1.00684772
        -19.17866667          1.00662237
        -19.17600000          1.00626183
        -19.17333333          1.00576757
        -19.17066667          1.00514128
        -19.16800000          1.00438492
        -19.16533333          1.00350072
        -19.16266667          1.00249118
        -19.16000000          1.00135907
        -19.15733333          1.00010746
        -19.15466667          0.99873968
        -19.15200000          0.99725937
        -19.14933333          0.99567044
        -19.14666667          0.99397709
        -19.14400000          0.99218380
        -19.14133333          0.99029534
        -19.13866667          0.98831675
        -19.13600000          0.98625335
        -19.13333333          0.98411071
        -19.13066667          0.98189466
        -19.12800000          0.97961129
        -19.12533333          0.97726691
        -19.12266667          0.97486806
        -19.12000000          0.97242147
        -19.11733333          0.96993409
        -19.11466667          0.96741304
        -19.11200000          0.96486560
        -19.10933333          0.96229918
        -19.10666667          0.95972133
        -19.10400000          0.95713970
        -19.10133333          0.95456200
        -19.09866667          0.95199601
        -19.09600000          0.94944956
        -19.09333333          0.94693046
        -19.09066667          0.94444652
        -19.08800000          0.94200551
        -19.08533333          0.93961512
        -19.08266667          0.93728296
        -19.08000000          0.93501650
        -19.07733333          0.93282308
        -19.07466667          0.93070986
        -19.07200000          0.92868377
        -19.06933333          0.92675156
        -19.06666667          0.92491967
        -19.06400000          0.92319430
        -19.06133333          0.92158130
        -19.05866667          0.92008622
        -19.05600000          0.91871422
        -19.05333333          0.91747010
        -19.05066667          0.91635823
        -19.04800000          0.91538257
        -19.04533333          0.91454663
        -19.04266667          0.91385344
        -19.04000000          0.91330555
        -19.03733333          0.91290500
        -19.03466667          0.91265332
        -19.03200000          0.91255152
        -19.02933333          0.91260004
        -19.02666667          0.91279879
        -19.02400000          0.91314712
        -19.02133333          0.91364382
        -19.01866667          0.91428709
        -19.01600000          0.91507460
        -19.01333333          0.91600342
        -19.01066667          0.91707007
        -19.00800000          0.91827052
        -19.00533333          0.91960018
        -19.00266667          0.92105392
        -19.00000000          0.92262609
        -18.99733333          0.92431051
        -18.99466667          0.92610053
        -18.99200000          0.92798899
        -18.98933333          0.92996831
        -18.98666667          0.93203044
        -18.98400000          0.93416694
        -18.98133333          0.93636899
        -18.97866667          0.93862739
        -18.97600000          0.94093265
        -18.97333333          0.94327497
        -18.97066667          0.94564427
        -18.96800000          0.94803027
        -18.96533333          0.95042250
        -18.96266667          0.95281032
        -18.96000000          0.95518296
        -18.95733333          0.95752961
        -18.95466667          0.95983938
        -18.95200000          0.96210140
        -18.94933333          0.96430482
        -18.94666667          0.96643887
        -18.94400000          0.96849290
        -18.94133333          0.97045640
        -18.93866667          0.97231905
        -18.93600000          0.97407076
        -18.93333333          0.97570171
        -18.93066667          0.97720236
        -18.92800000          0.97856352
        -18.92533333          0.97977636
        -18.92266667          0.98083243
        -18.92000000          0.98172374
        -18.91733333          0.98244272
        -18.91466667          0.98298230
        -18.91200000          0.98333591
        -18.90933333          0.98349751
        -18.90666667          0.98346161
        -18.90400000          0.98322327
        -18.90133333          0.98277815
        -18.89866667          0.98212250
        -18.89600000          0.98125316
        -18.89333333          0.98016760
        -18.89066667          0.97886390
        -18.88800000          0.97734076
        -18.88533333          0.97559752
        -18.88266667          0.97363412
        -18.88000000          0.97145113
        -18.87733333          0.96904972
        -18.87466667          0.96643167
        -18.87200000          0.96359934
        -18.86933333          0.96055569
        -18.86666667          0.95730422
        -18.86400000          0.95384897
        -18.86133333          0.95019452
        -18.85866667          0.94634595
        -18.85600000          0.94230880
        -18.85333333          0.93808909
        -18.85066667          0.93369325
        -18.84800000          0.92912813
        -18.84533333          0.92440092
        -18.84266667          0.91951918
        -18.84000000          0.91449078
        -18.83733333          0.90932384
        -18.83466667          0.90402677
        -18.83200000          0.89860817
        -18.82933333          0.89307682
        -18.82666667          0.88744167
        -18.82400000          0.88171175
        -18.82133333          0.87589622
        -18.81866667          0.87000425
        -18.81600000          0.86404505
        -18.81333333          0.85802783
        -18.81066667          0.85196172
        -18.80800000          0.84585581
        -18.80533333          0.83971908
        -18.80266667          0.83356037
        -18.80000000          0.82738837
        -18.79733333          0.82121160
        -18.79466667          0.81503834
        -18.79200000          0.80887666
        -18.78933333          0.80273440
        -18.78666667          0.79661908
        -18.78400000          0.79053798
        -18.78133333          0.78449803
        -18.77866667          0.77850586
        -18.77600000          0.77256776
        -18.77333333          0.76668968
        -18.77066667          0.76087718
        -18.76800000          0.75513550
        -18.76533333          0.74946946
        -18.76266667          0.74388353
        -18.76000000          0.73838178
        -18.75733333          0.73296789
        -18.75466667          0.72764518
        -18.75200000          0.72241655
        -18.74933333          0.71728455
        -18.74666667          0.71225131
        -18.74400000          0.70731861
        -18.74133333          0.70248787
        -18.73866667          0.69776012
        -18.73600000          0.69313608
        -18.73333333          0.68861608
        -18.73066667          0.68420015
        -18.72800000          0.67988800
        -18.72533333          0.67567902
        -18.72266667          0.67157233
        -18.72000000          0.66756675
        -18.71733333          0.66366086
        -18.71466667          0.65985299
        -18.71200000          0.65614124
