# total density of states output by FHI-aims 
# The energy reference for this output is the chemical potential, mu =       -3.139482 eV
#    Energy (eV)      DOS 
        -16.86051814          0.53708844
        -16.85785147          0.52718102
        -16.85518481          0.51757811
        -16.85251814          0.50828762
        -16.84985147          0.49931700
        -16.84718481          0.49067332
        -16.84451814          0.48236323
        -16.84185147          0.47439298
        -16.83918481          0.46676843
        -16.83651814          0.45949505
        -16.83385147          0.45257797
        -16.83118481          0.44602191
        -16.82851814          0.43983127
        -16.82585147          0.43401008
        -16.82318481          0.42856204
        -16.82051814          0.42349051
        -16.81785147          0.41879852
        -16.81518481          0.41448879
        -16.81251814          0.41056372
        -16.80985147          0.40702538
        -16.80718481          0.40387556
        -16.80451814          0.40111572
        -16.80185147          0.39874703
        -16.79918481          0.39677034
        -16.79651814          0.39518622
        -16.79385147          0.39399491
        -16.79118481          0.39319636
        -16.78851814          0.39279020
        -16.78585147          0.39277575
        -16.78318481          0.39315199
        -16.78051814          0.39391761
        -16.77785147          0.39507094
        -16.77518481          0.39660997
        -16.77251814          0.39853236
        -16.76985147          0.40083540
        -16.76718481          0.40351602
        -16.76451814          0.40657076
        -16.76185147          0.40999579
        -16.75918481          0.41378688
        -16.75651814          0.41793940
        -16.75385147          0.42244829
        -16.75118481          0.42730808
        -16.74851814          0.43251286
        -16.74585147          0.43805628
        -16.74318481          0.44393154
        -16.74051814          0.45013136
        -16.73785147          0.45664802
        -16.73518481          0.46347332
        -16.73251814          0.47059858
        -16.72985147          0.47801465
        -16.72718481          0.48571188
        -16.72451814          0.49368015
        -16.72185147          0.50190885
        -16.71918481          0.51038691
        -16.71651814          0.51910277
        -16.71385147          0.52804439
        -16.71118481          0.53719929
        -16.70851814          0.54655453
        -16.70585147          0.55609673
        -16.70318481          0.56581209
        -16.70051814          0.57568640
        -16.69785147          0.58570507
        -16.69518481          0.59585310
        -16.69251814          0.60611520
        -16.68985147          0.61647572
        -16.68718481          0.62691872
        -16.68451814          0.63742800
        -16.68185147          0.64798711
        -16.67918481          0.65857941
        -16.67651814          0.66918808
        -16.67385147          0.67979618
        -16.67118481          0.69038664
        -16.66851814          0.70094237
        -16.66585147          0.71144623
        -16.66318481          0.72188112
        -16.66051814          0.73223001
        -16.65785147          0.74247597
        -16.65518481          0.75260221
        -16.65251814          0.76259216
        -16.64985147          0.77242947
        -16.64718481          0.78209809
        -16.64451814          0.79158230
        -16.64185147          0.80086674
        -16.63918481          0.80993650
        -16.63651814          0.81877710
        -16.63385147          0.82737457
        -16.63118481          0.83571552
        -16.62851814          0.84378710
        -16.62585147          0.85157713
        -16.62318481          0.85907405
        -16.62051814          0.86626704
        -16.61785147          0.87314598
        -16.61518481          0.87970153
        -16.61251814          0.88592515
        -16.60985147          0.89180910
        -16.60718481          0.89734650
        -16.60451814          0.90253133
        -16.60185147          0.90735845
        -16.59918481          0.91182362
        -16.59651814          0.91592352
        -16.59385147          0.91965575
        -16.59118481          0.92301884
        -16.58851814          0.92601225
        -16.58585147          0.92863636
        -16.58318481          0.93089250
        -16.58051814          0.93278291
        -16.57785147          0.93431075
        -16.57518481          0.93548008
        -16.57251814          0.93629584
        -16.56985147          0.93676384
        -16.56718481          0.93689074
        -16.56451814          0.93668400
        -16.56185147          0.93615188
        -16.55918481          0.93530343
        -16.55651814          0.93414838
        -16.55385147          0.93269718
        -16.55118481          0.93096093
        -16.54851814          0.92895135
        -16.54585147          0.92668073
        -16.54318481          0.92416188
        -16.54051814          0.92140811
        -16.53785147          0.91843316
        -16.53518481          0.91525117
        -16.53251814          0.91187659
        -16.52985147          0.90832420
        -16.52718481          0.90460900
        -16.52451814          0.90074618
        -16.52185147          0.89675109
        -16.51918481          0.89263914
        -16.51651814          0.88842580
        -16.51385147          0.88412652
        -16.51118481          0.87975669
        -16.50851814          0.87533159
        -16.50585147          0.87086635
        -16.50318481          0.86637588
        -16.50051814          0.86187486
        -16.49785147          0.85737766
        -16.49518481          0.85289834
        -16.49251814          0.84845057
        -16.48985147          0.84404761
        -16.48718481          0.83970228
        -16.48451814          0.83542691
        -16.48185147          0.83123334
        -16.47918481          0.82713284
        -16.47651814          0.82313614
        -16.47385147          0.81925338
        -16.47118481          0.81549407
        -16.46851814          0.81186712
        -16.46585147          0.80838077
        -16.46318481          0.80504264
        -16.46051814          0.80185964
        -16.45785147          0.79883805
        -16.45518481          0.79598346
        -16.45251814          0.79330076
        -16.44985147          0.79079420
        -16.44718481          0.78846733
        -16.44451814          0.78632304
        -16.44185147          0.78436358
        -16.43918481          0.78259051
        -16.43651814          0.78100480
        -16.43385147          0.77960677
        -16.43118481          0.77839616
        -16.42851814          0.77737210
        -16.42585147          0.77653319
        -16.42318481          0.77587746
        -16.42051814          0.77540243
        -16.41785147          0.77510516
        -16.41518481          0.77498219
        -16.41251814          0.77502968
        -16.40985147          0.77524334
        -16.40718481          0.77561851
        -16.40451814          0.77615020
        -16.40185147          0.77683307
        -16.39918481          0.77766152
        -16.39651814          0.77862967
        -16.39385147          0.77973142
        -16.39118481          0.78096047
        -16.38851814          0.78231036
        -16.38585147          0.78377447
        -16.38318481          0.78534611
        -16.38051814          0.78701849
        -16.37785147          0.78878475
        -16.37518481          0.79063804
        -16.37251814          0.79257149
        -16.36985147          0.79457828
        -16.36718481          0.79665161
        -16.36451814          0.79878479
        -16.36185147          0.80097120
        -16.35918481          0.80320437
        -16.35651814          0.80547793
        -16.35385147          0.80778569
        -16.35118481          0.81012164
        -16.34851814          0.81247994
        -16.34585147          0.81485496
        -16.34318481          0.81724131
        -16.34051814          0.81963378
        -16.33785147          0.82202744
        -16.33518481          0.82441760
        -16.33251814          0.82679980
        -16.32985147          0.82916988
        -16.32718481          0.83152392
        -16.32451814          0.83385829
        -16.32185147          0.83616962
        -16.31918481          0.83845481
        -16.31651814          0.84071107
        -16.31385147          0.84293587
        -16.31118481          0.84512695
        -16.30851814          0.84728233
        -16.30585147          0.84940033
        -16.30318481          0.85147950
        -16.30051814          0.85351870
        -16.29785147          0.85551702
        -16.29518481          0.85747384
        -16.29251814          0.85938876
        -16.28985147          0.86126168
        -16.28718481          0.86309270
        -16.28451814          0.86488218
        -16.28185147          0.86663071
        -16.27918481          0.86833910
        -16.27651814          0.87000840
        -16.27385147          0.87163986
        -16.27118481          0.87323494
        -16.26851814          0.87479529
        -16.26585147          0.87632278
        -16.26318481          0.87781944
        -16.26051814          0.87928751
        -16.25785147          0.88072938
        -16.25518481          0.88214762
        -16.25251814          0.88354496
        -16.24985147          0.88492428
        -16.24718481          0.88628861
        -16.24451814          0.88764112
        -16.24185147          0.88898511
        -16.23918481          0.89032401
        -16.23651814          0.89166137
        -16.23385147          0.89300084
        -16.23118481          0.89434620
        -16.22851814          0.89570129
        -16.22585147          0.89707005
        -16.22318481          0.89845652
        -16.22051814          0.89986479
        -16.21785147          0.90129900
        -16.21518481          0.90276338
        -16.21251814          0.90426215
        -16.20985147          0.90579961
        -16.20718481          0.90738006
        -16.20451814          0.90900779
        -16.20185147          0.91068714
        -16.19918481          0.91242238
        -16.19651814          0.91421779
        -16.19385147          0.91607761
        -16.19118481          0.91800600
        -16.18851814          0.92000709
        -16.18585147          0.92208492
        -16.18318481          0.92424342
        -16.18051814          0.92648642
        -16.17785147          0.92881766
        -16.17518481          0.93124068
        -16.17251814          0.93375893
        -16.16985147          0.93637565
        -16.16718481          0.93909391
        -16.16451814          0.94191658
        -16.16185147          0.94484632
        -16.15918481          0.94788555
        -16.15651814          0.95103646
        -16.15385147          0.95430098
        -16.15118481          0.95768075
        -16.14851814          0.96117714
        -16.14585147          0.96479121
        -16.14318481          0.96852373
        -16.14051814          0.97237511
        -16.13785147          0.97634546
        -16.13518481          0.98043453
        -16.13251814          0.98464172
        -16.12985147          0.98896607
        -16.12718481          0.99340626
        -16.12451814          0.99796059
        -16.12185147          1.00262698
        -16.11918481          1.00740298
        -16.11651814          1.01228577
        -16.11385147          1.01727213
        -16.11118481          1.02235848
        -16.10851814          1.02754086
        -16.10585147          1.03281494
        -16.10318481          1.03817604
        -16.10051814          1.04361912
        -16.09785147          1.04913879
        -16.09518481          1.05472934
        -16.09251814          1.06038475
        -16.08985147          1.06609867
        -16.08718481          1.07186450
        -16.08451814          1.07767533
        -16.08185147          1.08352403
        -16.07918481          1.08940325
        -16.07651814          1.09530539
        -16.07385147          1.10122271
        -16.07118481          1.10714729
        -16.06851814          1.11307107
        -16.06585147          1.11898589
        -16.06318481          1.12488350
        -16.06051814          1.13075561
        -16.05785147          1.13659388
        -16.05518481          1.14238999
        -16.05251814          1.14813563
        -16.04985147          1.15382255
        -16.04718481          1.15944259
        -16.04451814          1.16498770
        -16.04185147          1.17044997
        -16.03918481          1.17582165
        -16.03651814          1.18109518
        -16.03385147          1.18626323
        -16.03118481          1.19131870
        -16.02851814          1.19625476
        -16.02585147          1.20106485
        -16.02318481          1.20574275
        -16.02051814          1.21028254
        -16.01785147          1.21467866
        -16.01518481          1.21892588
        -16.01251814          1.22301940
        -16.00985147          1.22695475
        -16.00718481          1.23072789
        -16.00451814          1.23433518
        -16.00185147          1.23777339
        -15.99918481          1.24103973
        -15.99651814          1.24413179
        -15.99385147          1.24704761
        -15.99118481          1.24978567
        -15.98851814          1.25234482
        -15.98585147          1.25472437
        -15.98318481          1.25692401
        -15.98051814          1.25894385
        -15.97785147          1.26078436
        -15.97518481          1.26244643
        -15.97251814          1.26393127
        -15.96985147          1.26524048
        -15.96718481          1.26637597
        -15.96451814          1.26733996
        -15.96185147          1.26813501
        -15.95918481          1.26876392
        -15.95651814          1.26922976
        -15.95385147          1.26953586
        -15.95118481          1.26968575
        -15.94851814          1.26968317
        -15.94585147          1.26953203
        -15.94318481          1.26923640
        -15.94051814          1.26880049
        -15.93785147          1.26822862
        -15.93518481          1.26752519
        -15.93251814          1.26669470
        -15.92985147          1.26574168
        -15.92718481          1.26467071
        -15.92451814          1.26348639
        -15.92185147          1.26219330
        -15.91918481          1.26079601
        -15.91651814          1.25929909
        -15.91385147          1.25770703
        -15.91118481          1.25602427
        -15.90851814          1.25425520
        -15.90585147          1.25240411
        -15.90318481          1.25047523
        -15.90051814          1.24847267
        -15.89785147          1.24640047
        -15.89518481          1.24426255
        -15.89251814          1.24206272
        -15.88985147          1.23980471
        -15.88718481          1.23749211
        -15.88451814          1.23512843
        -15.88185147          1.23271706
        -15.87918481          1.23026131
        -15.87651814          1.22776437
        -15.87385147          1.22522934
        -15.87118481          1.22265925
        -15.86851814          1.22005704
        -15.86585147          1.21742558
        -15.86318481          1.21476767
        -15.86051814          1.21208605
        -15.85785147          1.20938342
        -15.85518481          1.20666242
        -15.85251814          1.20392566
        -15.84985147          1.20117575
        -15.84718481          1.19841523
        -15.84451814          1.19564667
        -15.84185147          1.19287261
        -15.83918481          1.19009559
        -15.83651814          1.18731816
        -15.83385147          1.18454288
        -15.83118481          1.18177231
        -15.82851814          1.17900903
        -15.82585147          1.17625564
        -15.82318481          1.17351474
        -15.82051814          1.17078896
        -15.81785147          1.16808092
        -15.81518481          1.16539327
        -15.81251814          1.16272866
        -15.80985147          1.16008973
        -15.80718481          1.15747912
        -15.80451814          1.15489944
        -15.80185147          1.15235328
        -15.79918481          1.14984321
        -15.79651814          1.14737173
        -15.79385147          1.14494130
        -15.79118481          1.14255429
        -15.78851814          1.14021300
        -15.78585147          1.13791962
        -15.78318481          1.13567622
        -15.78051814          1.13348477
        -15.77785147          1.13134706
        -15.77518481          1.12926473
        -15.77251814          1.12723924
        -15.76985147          1.12527187
        -15.76718481          1.12336367
        -15.76451814          1.12151549
        -15.76185147          1.11972791
        -15.75918481          1.11800128
        -15.75651814          1.11633568
        -15.75385147          1.11473089
        -15.75118481          1.11318643
        -15.74851814          1.11170149
        -15.74585147          1.11027496
        -15.74318481          1.10890542
        -15.74051814          1.10759109
        -15.73785147          1.10632990
        -15.73518481          1.10511941
        -15.73251814          1.10395686
        -15.72985147          1.10283916
        -15.72718481          1.10176287
        -15.72451814          1.10072421
        -15.72185147          1.09971910
        -15.71918481          1.09874312
        -15.71651814          1.09779153
        -15.71385147          1.09685932
        -15.71118481          1.09594117
        -15.70851814          1.09503150
        -15.70585147          1.09412445
        -15.70318481          1.09321395
        -15.70051814          1.09229369
        -15.69785147          1.09135717
        -15.69518481          1.09039772
        -15.69251814          1.08940850
        -15.68985147          1.08838257
        -15.68718481          1.08731285
        -15.68451814          1.08619223
        -15.68185147          1.08501352
        -15.67918481          1.08376952
        -15.67651814          1.08245306
        -15.67385147          1.08105697
        -15.67118481          1.07957420
        -15.66851814          1.07799776
        -15.66585147          1.07632080
        -15.66318481          1.07453664
        -15.66051814          1.07263878
        -15.65785147          1.07062091
        -15.65518481          1.06847701
        -15.65251814          1.06620129
        -15.64985147          1.06378826
        -15.64718481          1.06123276
        -15.64451814          1.05852996
        -15.64185147          1.05567540
        -15.63918481          1.05266499
        -15.63651814          1.04949504
        -15.63385147          1.04616228
        -15.63118481          1.04266387
        -15.62851814          1.03899740
        -15.62585147          1.03516093
        -15.62318481          1.03115296
        -15.62051814          1.02697245
        -15.61785147          1.02261885
        -15.61518481          1.01809205
        -15.61251814          1.01339244
        -15.60985147          1.00852085
        -15.60718481          1.00347858
        -15.60451814          0.99826737
        -15.60185147          0.99288942
        -15.59918481          0.98734733
        -15.59651814          0.98164416
        -15.59385147          0.97578333
        -15.59118481          0.96976866
        -15.58851814          0.96360434
        -15.58585147          0.95729489
        -15.58318481          0.95084516
        -15.58051814          0.94426030
        -15.57785147          0.93754572
        -15.57518481          0.93070711
