# total density of states output by FHI-aims 
# The energy reference for this output is the chemical potential, mu =       -3.736734 eV
#    Energy (eV)      DOS 
        -16.26326593          0.90411290
        -16.26059926          0.89741435
        -16.25793259          0.89062212
        -16.25526593          0.88375063
        -16.25259926          0.87681455
        -16.24993259          0.86982873
        -16.24726593          0.86280820
        -16.24459926          0.85576814
        -16.24193259          0.84872388
        -16.23926593          0.84169082
        -16.23659926          0.83468445
        -16.23393259          0.82772030
        -16.23126593          0.82081393
        -16.22859926          0.81398088
        -16.22593259          0.80723664
        -16.22326593          0.80059665
        -16.22059926          0.79407623
        -16.21793259          0.78769059
        -16.21526593          0.78145476
        -16.21259926          0.77538361
        -16.20993259          0.76949175
        -16.20726593          0.76379356
        -16.20459926          0.75830313
        -16.20193259          0.75303424
        -16.19926593          0.74800030
        -16.19659926          0.74321436
        -16.19393259          0.73868906
        -16.19126593          0.73443658
        -16.18859926          0.73046864
        -16.18593259          0.72679644
        -16.18326593          0.72343066
        -16.18059926          0.72038138
        -16.17793259          0.71765812
        -16.17526593          0.71526974
        -16.17259926          0.71322446
        -16.16993259          0.71152981
        -16.16726593          0.71019259
        -16.16459926          0.70921888
        -16.16193259          0.70861398
        -16.15926593          0.70838240
        -16.15659926          0.70852784
        -16.15393259          0.70905314
        -16.15126593          0.70996031
        -16.14859926          0.71125045
        -16.14593259          0.71292379
        -16.14326593          0.71497963
        -16.14059926          0.71741635
        -16.13793259          0.72023140
        -16.13526593          0.72342125
        -16.13259926          0.72698144
        -16.12993259          0.73090655
        -16.12726593          0.73519018
        -16.12459926          0.73982498
        -16.12193259          0.74480262
        -16.11926593          0.75011384
        -16.11659926          0.75574840
        -16.11393259          0.76169514
        -16.11126593          0.76794198
        -16.10859926          0.77447593
        -16.10593259          0.78128311
        -16.10326593          0.78834877
        -16.10059926          0.79565735
        -16.09793259          0.80319246
        -16.09526593          0.81093693
        -16.09259926          0.81887288
        -16.08993259          0.82698170
        -16.08726593          0.83524415
        -16.08459926          0.84364036
        -16.08193259          0.85214989
        -16.07926593          0.86075179
        -16.07659926          0.86942466
        -16.07393259          0.87814666
        -16.07126593          0.88689564
        -16.06859926          0.89564912
        -16.06593259          0.90438441
        -16.06326593          0.91307865
        -16.06059926          0.92170888
        -16.05793259          0.93025208
        -16.05526593          0.93868529
        -16.05259926          0.94698563
        -16.04993259          0.95513038
        -16.04726593          0.96309706
        -16.04459926          0.97086349
        -16.04193259          0.97840786
        -16.03926593          0.98570878
        -16.03659926          0.99274539
        -16.03393259          0.99949736
        -16.03126593          1.00594502
        -16.02859926          1.01206939
        -16.02593259          1.01785221
        -16.02326593          1.02327607
        -16.02059926          1.02832440
        -16.01793259          1.03298156
        -16.01526593          1.03723288
        -16.01259926          1.04106468
        -16.00993259          1.04446436
        -16.00726593          1.04742041
        -16.00459926          1.04992244
        -16.00193259          1.05196124
        -15.99926593          1.05352879
        -15.99659926          1.05461826
        -15.99393259          1.05522408
        -15.99126593          1.05534190
        -15.98859926          1.05496866
        -15.98593259          1.05410255
        -15.98326593          1.05274300
        -15.98059926          1.05089074
        -15.97793259          1.04854773
        -15.97526593          1.04571718
        -15.97259926          1.04240353
        -15.96993259          1.03861242
        -15.96726593          1.03435066
        -15.96459926          1.02962623
        -15.96193259          1.02444822
        -15.95926593          1.01882681
        -15.95659926          1.01277322
        -15.95393259          1.00629968
        -15.95126593          0.99941935
        -15.94859926          0.99214634
        -15.94593259          0.98449558
        -15.94326593          0.97648282
        -15.94059926          0.96812456
        -15.93793259          0.95943800
        -15.93526593          0.95044094
        -15.93259926          0.94115180
        -15.92993259          0.93158947
        -15.92726593          0.92177331
        -15.92459926          0.91172309
        -15.92193259          0.90145888
        -15.91926593          0.89100102
        -15.91659926          0.88037008
        -15.91393259          0.86958674
        -15.91126593          0.85867181
        -15.90859926          0.84764608
        -15.90593259          0.83653034
        -15.90326593          0.82534531
        -15.90059926          0.81411153
        -15.89793259          0.80284939
        -15.89526593          0.79157901
        -15.89259926          0.78032026
        -15.88993259          0.76909264
        -15.88726593          0.75791531
        -15.88459926          0.74680699
        -15.88193259          0.73578599
        -15.87926593          0.72487009
        -15.87659926          0.71407659
        -15.87393259          0.70342224
        -15.87126593          0.69292320
        -15.86859926          0.68259508
        -15.86593259          0.67245285
        -15.86326593          0.66251085
        -15.86059926          0.65278280
        -15.85793259          0.64328175
        -15.85526593          0.63402010
        -15.85259926          0.62500956
        -15.84993259          0.61626120
        -15.84726593          0.60778539
        -15.84459926          0.59959183
        -15.84193259          0.59168955
        -15.83926593          0.58408694
        -15.83659926          0.57679168
        -15.83393259          0.56981084
        -15.83126593          0.56315083
        -15.82859926          0.55681742
        -15.82593259          0.55081578
        -15.82326593          0.54515046
        -15.82059926          0.53982541
        -15.81793259          0.53484403
        -15.81526593          0.53020911
        -15.81259926          0.52592295
        -15.80993259          0.52198726
        -15.80726593          0.51840327
        -15.80459926          0.51517170
        -15.80193259          0.51229280
        -15.79926593          0.50976632
        -15.79659926          0.50759159
        -15.79393259          0.50576749
        -15.79126593          0.50429247
        -15.78859926          0.50316460
        -15.78593259          0.50238151
        -15.78326593          0.50194051
        -15.78059926          0.50183848
        -15.77793259          0.50207197
        -15.77526593          0.50263721
        -15.77259926          0.50353004
        -15.76993259          0.50474602
        -15.76726593          0.50628037
        -15.76459926          0.50812800
        -15.76193259          0.51028353
        -15.75926593          0.51274126
        -15.75659926          0.51549523
        -15.75393259          0.51853917
        -15.75126593          0.52186654
        -15.74859926          0.52547053
        -15.74593259          0.52934405
        -15.74326593          0.53347973
        -15.74059926          0.53786997
        -15.73793259          0.54250688
        -15.73526593          0.54738231
        -15.73259926          0.55248787
        -15.72993259          0.55781491
        -15.72726593          0.56335453
        -15.72459926          0.56909759
        -15.72193259          0.57503471
        -15.71926593          0.58115626
        -15.71659926          0.58745241
        -15.71393259          0.59391305
        -15.71126593          0.60052791
        -15.70859926          0.60728647
        -15.70593259          0.61417801
        -15.70326593          0.62119163
        -15.70059926          0.62831622
        -15.69793259          0.63554051
        -15.69526593          0.64285307
        -15.69259926          0.65024228
        -15.68993259          0.65769643
        -15.68726593          0.66520365
        -15.68459926          0.67275197
        -15.68193259          0.68032935
        -15.67926593          0.68792363
        -15.67659926          0.69552262
        -15.67393259          0.70311410
        -15.67126593          0.71068581
        -15.66859926          0.71822552
        -15.66593259          0.72572100
        -15.66326593          0.73316009
        -15.66059926          0.74053070
        -15.65793259          0.74782081
        -15.65526593          0.75501857
        -15.65259926          0.76211225
        -15.64993259          0.76909028
        -15.64726593          0.77594132
        -15.64459926          0.78265423
        -15.64193259          0.78921814
        -15.63926593          0.79562244
        -15.63659926          0.80185684
        -15.63393259          0.80791136
        -15.63126593          0.81377640
        -15.62859926          0.81944271
        -15.62593259          0.82490146
        -15.62326593          0.83014424
        -15.62059926          0.83516309
        -15.61793259          0.83995052
        -15.61526593          0.84449952
        -15.61259926          0.84880361
        -15.60993259          0.85285681
        -15.60726593          0.85665370
        -15.60459926          0.86018942
        -15.60193259          0.86345966
        -15.59926593          0.86646070
        -15.59659926          0.86918944
        -15.59393259          0.87164334
        -15.59126593          0.87382048
        -15.58859926          0.87571957
        -15.58593259          0.87733990
        -15.58326593          0.87868140
        -15.58059926          0.87974460
        -15.57793259          0.88053065
        -15.57526593          0.88104128
        -15.57259926          0.88127884
        -15.56993259          0.88124625
        -15.56726593          0.88094703
        -15.56459926          0.88038524
        -15.56193259          0.87956550
        -15.55926593          0.87849295
        -15.55659926          0.87717326
        -15.55393259          0.87561259
        -15.55126593          0.87381757
        -15.54859926          0.87179529
        -15.54593259          0.86955327
        -15.54326593          0.86709940
        -15.54059926          0.86444200
        -15.53793259          0.86158971
        -15.53526593          0.85855150
        -15.53259926          0.85533662
        -15.52993259          0.85195462
        -15.52726593          0.84841526
        -15.52459926          0.84472851
        -15.52193259          0.84090454
        -15.51926593          0.83695364
        -15.51659926          0.83288624
        -15.51393259          0.82871285
        -15.51126593          0.82444403
        -15.50859926          0.82009040
        -15.50593259          0.81566257
        -15.50326593          0.81117112
        -15.50059926          0.80662658
        -15.49793259          0.80203942
        -15.49526593          0.79742000
        -15.49259926          0.79277856
        -15.48993259          0.78812518
        -15.48726593          0.78346980
        -15.48459926          0.77882216
        -15.48193259          0.77419179
        -15.47926593          0.76958800
        -15.47659926          0.76501987
        -15.47393259          0.76049622
        -15.47126593          0.75602560
        -15.46859926          0.75161631
        -15.46593259          0.74727633
        -15.46326593          0.74301337
        -15.46059926          0.73883482
        -15.45793259          0.73474779
        -15.45526593          0.73075904
        -15.45259926          0.72687504
        -15.44993259          0.72310196
        -15.44726593          0.71944561
        -15.44459926          0.71591153
        -15.44193259          0.71250491
        -15.43926593          0.70923065
        -15.43659926          0.70609334
        -15.43393259          0.70309727
        -15.43126593          0.70024643
        -15.42859926          0.69754450
        -15.42593259          0.69499492
        -15.42326593          0.69260082
        -15.42059926          0.69036508
        -15.41793259          0.68829029
        -15.41526593          0.68637883
        -15.41259926          0.68463280
        -15.40993259          0.68305410
        -15.40726593          0.68164437
        -15.40459926          0.68040506
        -15.40193259          0.67933739
        -15.39926593          0.67844240
        -15.39659926          0.67772092
        -15.39393259          0.67717361
        -15.39126593          0.67680094
        -15.38859926          0.67660322
        -15.38593259          0.67658060
        -15.38326593          0.67673305
        -15.38059926          0.67706041
        -15.37793259          0.67756236
        -15.37526593          0.67823846
        -15.37259926          0.67908810
        -15.36993259          0.68011055
        -15.36726593          0.68130494
        -15.36459926          0.68267029
        -15.36193259          0.68420545
        -15.35926593          0.68590919
        -15.35659926          0.68778010
        -15.35393259          0.68981668
        -15.35126593          0.69201729
        -15.34859926          0.69438015
        -15.34593259          0.69690336
        -15.34326593          0.69958488
        -15.34059926          0.70242254
        -15.33793259          0.70541401
        -15.33526593          0.70855685
        -15.33259926          0.71184845
        -15.32993259          0.71528608
        -15.32726593          0.71886684
        -15.32459926          0.72258768
        -15.32193259          0.72644539
        -15.31926593          0.73043662
        -15.31659926          0.73455784
        -15.31393259          0.73880536
        -15.31126593          0.74317533
        -15.30859926          0.74766372
        -15.30593259          0.75226634
        -15.30326593          0.75697883
        -15.30059926          0.76179663
        -15.29793259          0.76671505
        -15.29526593          0.77172919
        -15.29259926          0.77683399
        -15.28993259          0.78202422
        -15.28726593          0.78729447
        -15.28459926          0.79263916
        -15.28193259          0.79805255
        -15.27926593          0.80352873
        -15.27659926          0.80906164
        -15.27393259          0.81464503
        -15.27126593          0.82027254
        -15.26859926          0.82593764
        -15.26593259          0.83163366
        -15.26326593          0.83735379
        -15.26059926          0.84309112
        -15.25793259          0.84883859
        -15.25526593          0.85458904
        -15.25259926          0.86033521
        -15.24993259          0.86606975
        -15.24726593          0.87178522
        -15.24459926          0.87747411
        -15.24193259          0.88312885
        -15.23926593          0.88874182
        -15.23659926          0.89430536
        -15.23393259          0.89981179
        -15.23126593          0.90525342
        -15.22859926          0.91062254
        -15.22593259          0.91591149
        -15.22326593          0.92111260
        -15.22059926          0.92621828
        -15.21793259          0.93122097
        -15.21526593          0.93611320
        -15.21259926          0.94088757
        -15.20993259          0.94553682
        -15.20726593          0.95005376
        -15.20459926          0.95443138
        -15.20193259          0.95866278
        -15.19926593          0.96274128
        -15.19659926          0.96666032
        -15.19393259          0.97041360
        -15.19126593          0.97399500
        -15.18859926          0.97739863
        -15.18593259          0.98061887
        -15.18326593          0.98365036
        -15.18059926          0.98648800
        -15.17793259          0.98912700
        -15.17526593          0.99156288
        -15.17259926          0.99379149
        -15.16993259          0.99580900
        -15.16726593          0.99761196
        -15.16459926          0.99919727
        -15.16193259          1.00056222
        -15.15926593          1.00170449
        -15.15659926          1.00262215
        -15.15393259          1.00331372
        -15.15126593          1.00377810
        -15.14859926          1.00401467
        -15.14593259          1.00402322
        -15.14326593          1.00380402
        -15.14059926          1.00335777
        -15.13793259          1.00268565
        -15.13526593          1.00178931
        -15.13259926          1.00067086
        -15.12993259          0.99933289
        -15.12726593          0.99777846
        -15.12459926          0.99601111
        -15.12193259          0.99403483
        -15.11926593          0.99185409
        -15.11659926          0.98947383
        -15.11393259          0.98689943
        -15.11126593          0.98413673
        -15.10859926          0.98119199
        -15.10593259          0.97807191
        -15.10326593          0.97478359
        -15.10059926          0.97133454
        -15.09793259          0.96773266
        -15.09526593          0.96398618
        -15.09259926          0.96010372
        -15.08993259          0.95609420
        -15.08726593          0.95196685
        -15.08459926          0.94773116
        -15.08193259          0.94339692
        -15.07926593          0.93897411
        -15.07659926          0.93447292
        -15.07393259          0.92990373
        -15.07126593          0.92527704
        -15.06859926          0.92060348
        -15.06593259          0.91589376
        -15.06326593          0.91115863
        -15.06059926          0.90640886
        -15.05793259          0.90165520
        -15.05526593          0.89690837
        -15.05259926          0.89217898
        -15.04993259          0.88747752
        -15.04726593          0.88281435
        -15.04459926          0.87819962
        -15.04193259          0.87364326
        -15.03926593          0.86915496
        -15.03659926          0.86474410
        -15.03393259          0.86041975
        -15.03126593          0.85619063
        -15.02859926          0.85206507
        -15.02593259          0.84805100
        -15.02326593          0.84415589
        -15.02059926          0.84038675
        -15.01793259          0.83675011
        -15.01526593          0.83325197
        -15.01259926          0.82989781
        -15.00993259          0.82669252
        -15.00726593          0.82364046
        -15.00459926          0.82074537
        -15.00193259          0.81801038
        -14.99926593          0.81543804
        -14.99659926          0.81303025
        -14.99393259          0.81078829
        -14.99126593          0.80871279
        -14.98859926          0.80680378
        -14.98593259          0.80506062
        -14.98326593          0.80348206
        -14.98059926          0.80206623
        -14.97793259          0.80081064
